wl [nm]	refractive_index 	+/- error 
at T=20.0 degC, S=200.0 PSU, depol.ratio=0.039, Theta=90.0 deg
300.0	   1.4003585520	   0.0000300000
302.0	   1.3997639958	   0.0000300000
304.0	   1.3991839546	   0.0000300000
306.0	   1.3986179438	   0.0000300000
308.0	   1.3980654981	   0.0000300000
310.0	   1.3975261711	   0.0000300000
312.0	   1.3969995340	   0.0000300000
314.0	   1.3964851749	   0.0000300000
316.0	   1.3959826983	   0.0000300000
318.0	   1.3954917239	   0.0000300000
320.0	   1.3950118864	   0.0000300000
322.0	   1.3945428343	   0.0000300000
324.0	   1.3940842298	   0.0000300000
326.0	   1.3936357477	   0.0000300000
328.0	   1.3931970755	   0.0000300000
330.0	   1.3927679119	   0.0000300000
332.0	   1.3923479674	   0.0000300000
334.0	   1.3919369629	   0.0000300000
336.0	   1.3915346297	   0.0000300000
338.0	   1.3911407090	   0.0000300000
340.0	   1.3907549513	   0.0000300000
342.0	   1.3903771163	   0.0000300000
344.0	   1.3900069722	   0.0000300000
346.0	   1.3896442956	   0.0000300000
348.0	   1.3892888710	   0.0000300000
350.0	   1.3889404906	   0.0000300000
352.0	   1.3885989538	   0.0000300000
354.0	   1.3882640671	   0.0000300000
356.0	   1.3879356436	   0.0000300000
358.0	   1.3876135031	   0.0000300000
360.0	   1.3872974712	   0.0000300000
362.0	   1.3869873799	   0.0000300000
364.0	   1.3866830666	   0.0000300000
366.0	   1.3863843742	   0.0000300000
368.0	   1.3860911511	   0.0000300000
370.0	   1.3858032505	   0.0000300000
372.0	   1.3855205305	   0.0000300000
374.0	   1.3852428542	   0.0000300000
376.0	   1.3849700887	   0.0000300000
378.0	   1.3847021058	   0.0000300000
380.0	   1.3844387813	   0.0000300000
382.0	   1.3841799951	   0.0000300000
384.0	   1.3839256309	   0.0000300000
386.0	   1.3836755760	   0.0000300000
388.0	   1.3834297215	   0.0000300000
390.0	   1.3831879617	   0.0000300000
392.0	   1.3829501945	   0.0000300000
394.0	   1.3827163206	   0.0000300000
396.0	   1.3824862442	   0.0000300000
398.0	   1.3822598722	   0.0000300000
400.0	   1.3820371144	   0.0000300000
402.0	   1.3818178833	   0.0000300000
404.0	   1.3816020942	   0.0000300000
406.0	   1.3813896649	   0.0000300000
408.0	   1.3811805156	   0.0000300000
410.0	   1.3809745689	   0.0000300000
412.0	   1.3807717499	   0.0000300000
414.0	   1.3805719855	   0.0000300000
416.0	   1.3803752052	   0.0000300000
418.0	   1.3801813404	   0.0000300000
420.0	   1.3799903242	   0.0000300000
422.0	   1.3798020921	   0.0000300000
424.0	   1.3796165812	   0.0000300000
426.0	   1.3794337304	   0.0000300000
428.0	   1.3792534805	   0.0000300000
430.0	   1.3790757738	   0.0000300000
432.0	   1.3789005543	   0.0000300000
434.0	   1.3787277675	   0.0000300000
436.0	   1.3785573606	   0.0000300000
438.0	   1.3783892821	   0.0000300000
440.0	   1.3782234820	   0.0000300000
442.0	   1.3780599116	   0.0000300000
444.0	   1.3778985236	   0.0000300000
446.0	   1.3777392720	   0.0000300000
448.0	   1.3775821120	   0.0000300000
450.0	   1.3774269999	   0.0000300000
452.0	   1.3772738935	   0.0000300000
454.0	   1.3771227514	   0.0000300000
456.0	   1.3769735334	   0.0000300000
458.0	   1.3768262004	   0.0000300000
460.0	   1.3766807142	   0.0000300000
462.0	   1.3765370379	   0.0000300000
464.0	   1.3763951351	   0.0000300000
466.0	   1.3762549708	   0.0000300000
468.0	   1.3761165106	   0.0000300000
470.0	   1.3759797211	   0.0000300000
472.0	   1.3758445697	   0.0000300000
474.0	   1.3757110247	   0.0000300000
476.0	   1.3755790552	   0.0000300000
478.0	   1.3754486308	   0.0000300000
480.0	   1.3753197224	   0.0000300000
482.0	   1.3751923010	   0.0000300000
484.0	   1.3750663389	   0.0000300000
486.0	   1.3749418086	   0.0000300000
488.0	   1.3748186836	   0.0000300000
490.0	   1.3746969380	   0.0000300000
492.0	   1.3745765463	   0.0000300000
494.0	   1.3744574838	   0.0000300000
496.0	   1.3743397264	   0.0000300000
498.0	   1.3742232505	   0.0000300000
500.0	   1.3741080332	   0.0000300000
502.0	   1.3739940520	   0.0000300000
504.0	   1.3738812850	   0.0000300000
506.0	   1.3737697107	   0.0000300000
508.0	   1.3736593083	   0.0000300000
510.0	   1.3735500573	   0.0000300000
512.0	   1.3734419377	   0.0000300000
514.0	   1.3733349301	   0.0000300000
516.0	   1.3732290155	   0.0000300000
518.0	   1.3731241752	   0.0000300000
520.0	   1.3730203910	   0.0000300000
522.0	   1.3729176451	   0.0000300000
524.0	   1.3728159202	   0.0000300000
526.0	   1.3727151993	   0.0000300000
528.0	   1.3726154658	   0.0000300000
530.0	   1.3725167033	   0.0000300000
532.0	   1.3724188961	   0.0000300000
534.0	   1.3723220285	   0.0000300000
536.0	   1.3722260854	   0.0000300000
538.0	   1.3721310520	   0.0000300000
540.0	   1.3720369136	   0.0000300000
542.0	   1.3719436560	   0.0000300000
544.0	   1.3718512653	   0.0000300000
546.0	   1.3717597279	   0.0000300000
548.0	   1.3716690304	   0.0000300000
550.0	   1.3715791598	   0.0000300000
552.0	   1.3714901032	   0.0000300000
554.0	   1.3714018482	   0.0000300000
556.0	   1.3713143825	   0.0000300000
558.0	   1.3712276941	   0.0000300000
560.0	   1.3711417713	   0.0000300000
562.0	   1.3710566025	   0.0000300000
564.0	   1.3709721764	   0.0000300000
566.0	   1.3708884820	   0.0000300000
568.0	   1.3708055085	   0.0000300000
570.0	   1.3707232452	   0.0000300000
572.0	   1.3706416819	   0.0000300000
574.0	   1.3705608082	   0.0000300000
576.0	   1.3704806143	   0.0000300000
578.0	   1.3704010903	   0.0000300000
580.0	   1.3703222266	   0.0000300000
582.0	   1.3702440138	   0.0000300000
584.0	   1.3701664428	   0.0000300000
586.0	   1.3700895045	   0.0000300000
588.0	   1.3700131899	   0.0000300000
590.0	   1.3699374905	   0.0000300000
592.0	   1.3698623977	   0.0000300000
594.0	   1.3697879031	   0.0000300000
596.0	   1.3697139986	   0.0000300000
598.0	   1.3696406760	   0.0000300000
600.0	   1.3695679275	   0.0000300000
602.0	   1.3694957454	   0.0000300000
604.0	   1.3694241220	   0.0000300000
606.0	   1.3693530498	   0.0000300000
608.0	   1.3692825217	   0.0000300000
610.0	   1.3692125302	   0.0000300000
612.0	   1.3691430685	   0.0000300000
614.0	   1.3690741296	   0.0000300000
616.0	   1.3690057067	   0.0000300000
618.0	   1.3689377930	   0.0000300000
620.0	   1.3688703821	   0.0000300000
622.0	   1.3688034675	   0.0000300000
624.0	   1.3687370429	   0.0000300000
626.0	   1.3686711020	   0.0000300000
628.0	   1.3686056388	   0.0000300000
630.0	   1.3685406473	   0.0000300000
632.0	   1.3684761216	   0.0000300000
634.0	   1.3684120559	   0.0000300000
636.0	   1.3683484445	   0.0000300000
638.0	   1.3682852818	   0.0000300000
640.0	   1.3682225624	   0.0000300000
642.0	   1.3681602809	   0.0000300000
644.0	   1.3680984318	   0.0000300000
646.0	   1.3680370101	   0.0000300000
648.0	   1.3679760107	   0.0000300000
650.0	   1.3679154284	   0.0000300000
652.0	   1.3678552583	   0.0000300000
654.0	   1.3677954956	   0.0000300000
656.0	   1.3677361354	   0.0000300000
658.0	   1.3676771731	   0.0000300000
660.0	   1.3676186040	   0.0000300000
662.0	   1.3675604236	   0.0000300000
664.0	   1.3675026274	   0.0000300000
666.0	   1.3674452110	   0.0000300000
668.0	   1.3673881701	   0.0000300000
670.0	   1.3673315003	   0.0000300000
672.0	   1.3672751976	   0.0000300000
674.0	   1.3672192577	   0.0000300000
676.0	   1.3671636766	   0.0000300000
678.0	   1.3671084503	   0.0000300000
680.0	   1.3670535749	   0.0000300000
682.0	   1.3669990465	   0.0000300000
684.0	   1.3669448613	   0.0000300000
686.0	   1.3668910156	   0.0000300000
688.0	   1.3668375056	   0.0000300000
690.0	   1.3667843277	   0.0000300000
692.0	   1.3667314783	   0.0000300000
694.0	   1.3666789540	   0.0000300000
696.0	   1.3666267512	   0.0000300000
698.0	   1.3665748665	   0.0000300000
700.0	   1.3665232966	   0.0005000000
702.0	   1.3664720382	   0.0005000000
704.0	   1.3664210879	   0.0005000000
706.0	   1.3663704426	   0.0005000000
708.0	   1.3663200991	   0.0005000000
710.0	   1.3662700543	   0.0005000000
712.0	   1.3662203052	   0.0005000000
714.0	   1.3661708486	   0.0005000000
716.0	   1.3661216816	   0.0005000000
718.0	   1.3660728012	   0.0005000000
720.0	   1.3660242046	   0.0005000000
722.0	   1.3659758890	   0.0005000000
724.0	   1.3659278514	   0.0005000000
726.0	   1.3658800892	   0.0005000000
728.0	   1.3658325996	   0.0005000000
730.0	   1.3657853798	   0.0005000000
732.0	   1.3657384273	   0.0005000000
734.0	   1.3656917395	   0.0005000000
736.0	   1.3656453136	   0.0005000000
738.0	   1.3655991473	   0.0005000000
740.0	   1.3655532380	   0.0005000000
742.0	   1.3655075832	   0.0005000000
744.0	   1.3654621805	   0.0005000000
746.0	   1.3654170275	   0.0005000000
748.0	   1.3653721218	   0.0005000000
750.0	   1.3653274611	   0.0005000000
752.0	   1.3652830430	   0.0005000000
754.0	   1.3652388653	   0.0005000000
756.0	   1.3651949257	   0.0005000000
758.0	   1.3651512221	   0.0005000000
760.0	   1.3651077522	   0.0005000000
762.0	   1.3650645139	   0.0005000000
764.0	   1.3650215051	   0.0005000000
766.0	   1.3649787236	   0.0005000000
768.0	   1.3649361674	   0.0005000000
770.0	   1.3648938345	   0.0005000000
772.0	   1.3648517228	   0.0005000000
774.0	   1.3648098303	   0.0005000000
776.0	   1.3647681551	   0.0005000000
778.0	   1.3647266953	   0.0005000000
780.0	   1.3646854489	   0.0005000000
782.0	   1.3646444141	   0.0005000000
784.0	   1.3646035889	   0.0005000000
786.0	   1.3645629715	   0.0005000000
788.0	   1.3645225602	   0.0005000000
790.0	   1.3644823531	   0.0005000000
792.0	   1.3644423485	   0.0005000000
794.0	   1.3644025446	   0.0005000000
796.0	   1.3643629396	   0.0005000000
798.0	   1.3643235320	   0.0005000000
800.0	   1.3642843199	   0.0005000000
802.0	   1.3642543199	   0.0005000000
804.0	   1.3642263199	   0.0005000000
806.0	   1.3641973199	   0.0005000000
808.0	   1.3641693199	   0.0005000000
810.0	   1.3641423199	   0.0005000000
812.0	   1.3641143199	   0.0005000000
814.0	   1.3640873199	   0.0005000000
816.0	   1.3640593199	   0.0005000000
818.0	   1.3640323199	   0.0005000000
820.0	   1.3640053199	   0.0005000000
822.0	   1.3639783199	   0.0005000000
824.0	   1.3639523199	   0.0005000000
826.0	   1.3639253199	   0.0005000000
828.0	   1.3638993199	   0.0005000000
830.0	   1.3638723199	   0.0005000000
832.0	   1.3638463199	   0.0005000000
834.0	   1.3638203199	   0.0005000000
836.0	   1.3637943199	   0.0005000000
838.0	   1.3637683199	   0.0005000000
840.0	   1.3637423199	   0.0005000000
842.0	   1.3637163199	   0.0005000000
844.0	   1.3636903199	   0.0005000000
846.0	   1.3636653199	   0.0005000000
848.0	   1.3636393199	   0.0005000000
850.0	   1.3636143199	   0.0005000000
852.0	   1.3635893199	   0.0005000000
854.0	   1.3635643199	   0.0005000000
856.0	   1.3635393199	   0.0005000000
858.0	   1.3635143199	   0.0005000000
860.0	   1.3634893199	   0.0005000000
862.0	   1.3634643199	   0.0005000000
864.0	   1.3634393199	   0.0005000000
866.0	   1.3634143199	   0.0005000000
868.0	   1.3633903199	   0.0005000000
870.0	   1.3633653199	   0.0005000000
872.0	   1.3633413199	   0.0005000000
874.0	   1.3633173199	   0.0005000000
876.0	   1.3632923199	   0.0005000000
878.0	   1.3632683199	   0.0005000000
880.0	   1.3632443199	   0.0005000000
882.0	   1.3632203199	   0.0005000000
884.0	   1.3631963199	   0.0005000000
886.0	   1.3631723199	   0.0005000000
888.0	   1.3631483199	   0.0005000000
890.0	   1.3631253199	   0.0005000000
892.0	   1.3631013199	   0.0005000000
894.0	   1.3630773199	   0.0005000000
896.0	   1.3630543199	   0.0005000000
898.0	   1.3630303199	   0.0005000000
900.0	   1.3630073199	   0.0005000000
902.0	   1.3629833199	   0.0005000000
904.0	   1.3629603199	   0.0005000000
906.0	   1.3629373199	   0.0005000000
908.0	   1.3629143199	   0.0005000000
910.0	   1.3628903199	   0.0005000000
912.0	   1.3628673199	   0.0005000000
914.0	   1.3628443199	   0.0005000000
916.0	   1.3628213199	   0.0005000000
918.0	   1.3627993199	   0.0005000000
920.0	   1.3627763199	   0.0005000000
922.0	   1.3627533199	   0.0005000000
924.0	   1.3627303199	   0.0005000000
926.0	   1.3627073199	   0.0005000000
928.0	   1.3626853199	   0.0005000000
930.0	   1.3626623199	   0.0005000000
932.0	   1.3626403199	   0.0005000000
934.0	   1.3626173199	   0.0005000000
936.0	   1.3625953199	   0.0005000000
938.0	   1.3625733199	   0.0005000000
940.0	   1.3625503199	   0.0005000000
942.0	   1.3625283199	   0.0005000000
944.0	   1.3625063199	   0.0005000000
946.0	   1.3624843199	   0.0005000000
948.0	   1.3624623199	   0.0005000000
950.0	   1.3624393199	   0.0005000000
952.0	   1.3624173199	   0.0005000000
954.0	   1.3623953199	   0.0005000000
956.0	   1.3623733199	   0.0005000000
958.0	   1.3623523199	   0.0005000000
960.0	   1.3623303199	   0.0005000000
962.0	   1.3623083199	   0.0005000000
964.0	   1.3622863199	   0.0005000000
966.0	   1.3622643199	   0.0005000000
968.0	   1.3622433199	   0.0005000000
970.0	   1.3622213199	   0.0005000000
972.0	   1.3621993199	   0.0005000000
974.0	   1.3621783199	   0.0005000000
976.0	   1.3621563199	   0.0005000000
978.0	   1.3621343199	   0.0005000000
980.0	   1.3621133199	   0.0005000000
982.0	   1.3620913199	   0.0005000000
984.0	   1.3620703199	   0.0005000000
986.0	   1.3620483199	   0.0005000000
988.0	   1.3620273199	   0.0005000000
990.0	   1.3620053199	   0.0005000000
992.0	   1.3619843199	   0.0005000000
994.0	   1.3619623199	   0.0005000000
996.0	   1.3619413199	   0.0005000000
998.0	   1.3619193199	   0.0005000000
1000.0	   1.3618983199	   0.0005000000
